n	partition(n)	runtime
1	1	1.042e-06
2	2	5.83e-07
3	3	1.375e-06
4	5	6.25e-07
5	7	6.67e-07
6	11	1.167e-06
7	15	7.5e-07
8	22	7.08e-07
9	30	7.08e-07
10	42	6.67e-07
11	56	7.5e-07
12	77	1.291e-06
13	101	7.92e-07
14	135	7.5e-07
15	176	6.66e-07
16	231	9.17e-07
17	297	8.34e-07
18	385	7.5e-07
19	490	7.91e-07
20	627	8.34e-07
21	792	7.92e-07
22	1002	8.75e-07
23	1255	9.59e-07
24	1575	1.542e-06
25	1958	9.16e-07
26	2436	9.17e-07
27	3010	1.042e-06
28	3718	1e-06
29	4565	9.58e-07
30	5604	9.58e-07
31	6842	9.17e-07
32	8349	9.17e-07
33	10143	9.16e-07
34	12310	9.17e-07
35	14883	9.58e-07
36	17977	1.125e-06
37	21637	1.084e-06
38	26015	1.166e-06
39	31185	1.083e-06
40	37338	1.125e-06
41	44583	1.084e-06
42	53174	1.209e-06
43	63261	1.125e-06
44	75175	1.208e-06
45	89134	1.25e-06
46	105558	1.166e-06
47	124754	1.292e-06
48	147273	2.209e-06
49	173525	1.292e-06
50	204226	1.334e-06
51	239943	1.292e-06
52	281589	1.542e-06
53	329931	1.375e-06
54	386155	1.5e-06
55	451276	1.333e-06
56	526823	1.375e-06
57	614154	1.5e-06
58	715220	1.5e-06
59	831820	1.542e-06
60	966467	1.5e-06
61	1121505	1.458e-06
62	1300156	1.708e-06
63	1505499	1.708e-06
64	1741630	1.458e-06
65	2012558	1.416e-06
66	2323520	1.458e-06
67	2679689	1.458e-06
68	3087735	1.5e-06
69	3554345	1.458e-06
70	4087968	1.5e-06
71	4697205	1.5e-06
72	5392783	1.583e-06
73	6185689	1.583e-06
74	7089500	1.583e-06
75	8118264	1.458e-06
76	9289091	1.584e-06
77	10619863	1.5e-06
78	12132164	1.459e-06
79	13848650	1.5e-06
80	15796476	1.708e-06
81	18004327	1.583e-06
82	20506255	1.542e-06
83	23338469	1.625e-06
84	26543660	1.666e-06
85	30167357	1.625e-06
86	34262962	1.5e-06
87	38887673	1.625e-06
88	44108109	1.667e-06
89	49995925	1.583e-06
90	56634173	1.5e-06
91	64112359	1.625e-06
92	72533807	1.584e-06
93	82010177	1.791e-06
94	92669720	1.75e-06
95	104651419	1.667e-06
96	118114304	1.75e-06
97	133230930	1.833e-06
98	150198136	3.333e-06
99	169229875	1.917e-06
100	190569292	1.917e-06
101	214481126	1.958e-06
102	241265379	1.792e-06
103	271248950	1.917e-06
104	304801365	1.75e-06
105	342325709	1.708e-06
106	384276336	1.709e-06
107	431149389	1.791e-06
108	483502844	1.583e-06
109	541946240	1.709e-06
110	607163746	1.666e-06
111	679903203	1.708e-06
112	761002156	1.75e-06
113	851376628	1.625e-06
114	952050665	1.666e-06
115	1064144451	1.709e-06
116	1188908248	1.792e-06
117	1327710076	1.75e-06
118	1482074143	1.875e-06
119	1653668665	1.875e-06
120	1844349560	1.916e-06
121	2056148051	1.833e-06
122	2291320912	1.792e-06
123	2552338241	1.958e-06
124	2841940500	1.917e-06
125	3163127352	1.708e-06
126	3519222692	1.917e-06
127	3913864295	2.042e-06
128	4351078600	1.916e-06
129	4835271870	2e-06
130	5371315400	1.917e-06
131	5964539504	1.958e-06
132	6620830889	2.042e-06
133	7346629512	1.917e-06
134	8149040695	1.958e-06
135	9035836076	2e-06
136	10015581680	2.167e-06
137	11097645016	2.125e-06
138	12292341831	1.917e-06
139	13610949895	1.875e-06
140	15065878135	1.75e-06
141	16670689208	1.791e-06
142	18440293320	1.875e-06
143	20390982757	2.125e-06
144	22540654445	1.959e-06
145	24908858009	1.875e-06
146	27517052599	1.958e-06
147	30388671978	2e-06
148	33549419497	2.042e-06
149	37027355200	2.167e-06
150	40853235313	2.041e-06
151	45060624582	2e-06
152	49686288421	2e-06
153	54770336324	2e-06
154	60356673280	1.875e-06
155	66493182097	1.834e-06
156	73232243759	2.208e-06
157	80630964769	2.041e-06
158	88751778802	2.084e-06
159	97662728555	2.208e-06
160	107438159466	2.167e-06
161	118159068427	2.334e-06
162	129913904637	2e-06
163	142798995930	2e-06
164	156919475295	2.167e-06
165	172389800255	2.125e-06
166	189334822579	2.167e-06
167	207890420102	2.083e-06
168	228204732751	2.042e-06
169	250438925115	2.125e-06
170	274768617130	2.083e-06
171	301384802048	2.125e-06
172	330495499613	2.208e-06
173	362326859895	2.167e-06
174	397125074750	2.041e-06
175	435157697830	2.208e-06
176	476715857290	2.042e-06
177	522115831195	2.166e-06
178	571701605655	2.125e-06
179	625846753120	2.125e-06
180	684957390936	2.208e-06
181	749474411781	2.209e-06
182	819876908323	2.167e-06
183	896684817527	2.166e-06
184	980462880430	2.25e-06
185	1071823774337	2.125e-06
186	1171432692373	2.125e-06
187	1280011042268	2.25e-06
188	1398341745571	2.708e-06
189	1527273599625	2.459e-06
190	1667727404093	2.459e-06
191	1820701100652	2.458e-06
192	1987276856363	2.459e-06
193	2168627105469	2.25e-06
194	2366022741845	2.25e-06
195	2580840212973	2.25e-06
196	2814570987591	2.291e-06
197	3068829878530	2.375e-06
198	3345365983698	5.417e-06
199	3646072432125	2.208e-06
200	3972999029388	2.292e-06
201	4328363658647	2.417e-06
202	4714566886083	2.375e-06
203	5134205287973	2.375e-06
204	5590088317495	2.291e-06
205	6085253859260	2.333e-06
206	6622987708040	2.333e-06
207	7206841706490	2.417e-06
208	7840656226137	2.208e-06
209	8528581302375	2.125e-06
210	9275102575355	2.292e-06
211	10085065885767	2.5e-06
212	10963707205259	2.375e-06
213	11916681236278	2.291e-06
214	12950095925895	2.292e-06
215	14070545699287	2.375e-06
216	15285151248481	2.75e-06
217	16601598107914	2.583e-06
218	18028182516671	2.458e-06
219	19573856161145	2.375e-06
220	21248279009367	2.542e-06
221	23061871173849	2.458e-06
222	25025873760111	2.458e-06
223	27152408925615	2.417e-06
224	29454549941750	2.416e-06
225	31946390696157	2.459e-06
226	34643126322519	2.458e-06
227	37561133582570	2.542e-06
228	40718063627362	2.416e-06
229	44132934884255	2.375e-06
230	47826239745920	2.459e-06
231	51820051838712	2.584e-06
232	56138148670947	2.541e-06
233	60806135438329	2.583e-06
234	65851585970275	2.583e-06
235	71304185514919	2.709e-06
236	77195892663512	2.5e-06
237	83561103925871	2.458e-06
238	90436839668817	2.458e-06
239	97862933703585	2.417e-06
240	105882246722733	2.541e-06
241	114540884553038	2.416e-06
242	123888443077259	2.417e-06
243	133978259344888	2.583e-06
244	144867692496445	2.625e-06
245	156618412527946	2.583e-06
246	169296722391554	2.541e-06
247	182973889854026	2.5e-06
248	197726516681672	2.667e-06
249	213636919820625	2.667e-06
250	230793554364681	2.625e-06
251	249291451168559	2.667e-06
252	269232701252579	2.708e-06
253	290726957916112	2.709e-06
254	313891991306665	2.5e-06
255	338854264248680	2.542e-06
256	365749566870782	2.667e-06
257	394723676655357	2.5e-06
258	425933084409356	2.625e-06
259	459545750448675	2.667e-06
260	495741934760846	2.583e-06
261	534715062908609	2.541e-06
262	576672674947168	4.042e-06
263	621837416509615	2.792e-06
264	670448123060170	2.708e-06
265	722760953690372	2.625e-06
266	779050629562167	2.542e-06
267	839611730366814	2.583e-06
268	904760108316360	2.917e-06
269	974834369944625	2.958e-06
270	1050197489931117	2.583e-06
271	1131238503938606	2.583e-06
272	1218374349844333	2.625e-06
273	1312051800816215	2.833e-06
274	1412749565173450	2.75e-06
275	1520980492851175	2.75e-06
276	1637293969337171	2.75e-06
277	1762278433057269	2.667e-06
278	1896564103591584	2.583e-06
279	2040825852575075	2.583e-06
280	2195786311682516	2.584e-06
281	2362219145337711	2.709e-06
282	2540952590045698	2.583e-06
283	2732873183547535	2.625e-06
284	2938929793929555	2.75e-06
285	3160137867148997	2.833e-06
286	3397584011986773	2.75e-06
287	3652430836071053	2.75e-06
288	3925922161489422	2.833e-06
289	4219388528587095	2.542e-06
290	4534253126900886	2.834e-06
291	4872038056472084	2.875e-06
292	5234371069753672	2.75e-06
293	5622992691950605	2.875e-06
294	6039763882095515	2.875e-06
295	6486674127079088	2.625e-06
296	6965850144195831	2.834e-06
297	7479565078510584	2.625e-06
298	8030248384943040	2.709e-06
299	8620496275465025	2.666e-06
300	9253082936723602	2.709e-06
301	9930972392403501	2.875e-06
302	10657331232548839	2.834e-06
303	11435542077822104	2.792e-06
304	12269218019229465	2.791e-06
305	13162217895057704	2.75e-06
306	14118662665280005	2.917e-06
307	15142952738857194	3.084e-06
308	16239786535829663	2.916e-06
309	17414180133147295	2.875e-06
310	18671488299600364	2.834e-06
311	20017426762576945	2.708e-06
312	21458096037352891	2.917e-06
313	23000006655487337	2.792e-06
314	24650106150830490	2.959e-06
315	26415807633566326	2.917e-06
316	28305020340996003	2.792e-06
317	30326181989842964	2.916e-06
318	32488293351466654	2.875e-06
319	34800954869440830	2.791e-06
320	37274405776748077	2.875e-06
321	39919565526999991	2.834e-06
322	42748078035954696	2.792e-06
323	45772358543578028	2.75e-06
324	49005643635237875	2.875e-06
325	52462044228828641	3.125e-06
326	56156602112874289	2.917e-06
327	60105349839666544	2.875e-06
328	64325374609114550	2.875e-06
329	68834885946073850	2.75e-06
330	73653287861850339	2.959e-06
331	78801255302666615	2.959e-06
332	84300815636225119	2.792e-06
333	90175434980549623	2.875e-06
334	96450110192202760	2.875e-06
335	103151466321735325	3.125e-06
336	110307860425292772	3.042e-06
337	117949491546113972	2.833e-06
338	126108517833796355	2.959e-06
339	134819180623301520	3.041e-06
340	144117936527873832	3.042e-06
341	154043597379576030	2.708e-06
342	164637479165761044	3.125e-06
343	175943559810422753	3.042e-06
344	188008647052292980	2.958e-06
345	200882556287683159	3.041e-06
346	214618299743286299	3.084e-06
347	229272286871217150	3.042e-06
348	244904537455382406	3.041e-06
349	261578907351144125	3.042e-06
350	279363328483702152	3.25e-06
351	298330063062758076	3e-06
352	318555973788329084	3.041e-06
353	340122810048577428	3.042e-06
354	363117512048110005	2.917e-06
355	387632532919029223	3e-06
356	413766180933342362	3e-06
357	441622981929358437	2.958e-06
358	471314064268398780	3e-06
359	502957566506000020	3.166e-06
360	536679070310691121	3e-06
361	572612058898037559	3.125e-06
362	610898403751884101	2.958e-06
363	651688879997206959	2.958e-06
364	695143713458946040	2.916e-06
365	741433159884081684	3.25e-06
366	790738119649411319	3.083e-06
367	843250788562528427	3.292e-06
368	899175348396088349	3.5e-06
369	958728697912338045	3.083e-06
370	1022141228367345362	3.167e-06
371	1089657644424399782	2.916e-06
372	1161537834849962850	2.959e-06
373	1238057794119125085	2.959e-06
374	1319510599727473500	2.875e-06
375	1406207446561484054	3.084e-06
376	1498478743590581081	3.125e-06
377	1596675274490756791	3.125e-06
378	1701169427975813525	3.167e-06
379	1812356499739472950	2.958e-06
380	1930656072350465812	2.959e-06
381	2056513475336633805	3.209e-06
382	2190401332423765131	3.042e-06
383	2332821198543892336	3e-06
384	2484305294265418180	3.084e-06
385	2645418340688763701	3e-06
386	2816759503217942792	3.125e-06
387	2998964447736452194	3.375e-06
388	3192707518433532826	3.25e-06
389	3398704041358160275	3.208e-06
390	3617712763867604423	3.25e-06
391	3850538434667429186	3.459e-06
392	4098034535626594791	3.375e-06
393	4361106170762284114	3.25e-06
394	4640713124699623515	3.334e-06
395	4937873096788191655	3.167e-06
396	5253665124416975163	3.333e-06
397	5589233202595404488	3.125e-06
398	5945790114707874597	1.0167e-05
399	6324621482504294325	3.25e-06
400	6727090051741041926	3.167e-06
